Count,Time,Tag ID,Distance,X,Y,Z,Pitch,Roll,Yaw
0,3.824,0,1.200,0.173,-0.101,1.183,0.236,-0.064,-0.993,
1,3.898,0,1.170,0.181,-0.086,1.152,0.259,-0.130,-0.974,
2,3.972,0,1.180,0.180,-0.087,1.163,0.255,-0.131,-0.978,
3,4.049,0,1.174,0.178,-0.088,1.157,0.243,-0.126,-0.985,
4,4.118,0,1.168,0.179,-0.087,1.151,0.246,-0.128,-0.983,
5,4.189,0,1.170,0.181,-0.086,1.152,0.248,-0.134,-0.981,
6,4.258,0,1.167,0.182,-0.085,1.150,0.246,-0.136,-0.981,
7,4.326,0,1.166,0.184,-0.084,1.148,0.246,-0.141,-0.979,
8,4.394,0,1.165,0.184,-0.084,1.147,0.247,-0.141,-0.980,
9,4.461,0,1.164,0.185,-0.085,1.146,0.247,-0.142,-0.979,
10,4.528,0,1.168,0.187,-0.089,1.149,0.249,-0.145,-0.978,
11,4.596,0,1.168,0.189,-0.087,1.150,0.246,-0.152,-0.974,
12,4.664,0,1.170,0.187,-0.090,1.152,0.249,-0.149,-0.976,
13,4.732,0,1.166,0.186,-0.090,1.148,0.251,-0.149,-0.976,
14,4.802,0,1.161,0.188,-0.089,1.142,0.255,-0.154,-0.971,
15,4.869,0,1.160,0.188,-0.089,1.141,0.250,-0.152,-0.971,
16,4.943,0,1.158,0.186,-0.090,1.140,0.252,-0.149,-0.973,
17,5.012,0,1.155,0.184,-0.090,1.137,0.259,-0.151,-0.972,
18,5.084,0,1.156,0.186,-0.088,1.137,0.256,-0.153,-0.970,
19,5.157,0,1.157,0.187,-0.088,1.138,0.253,-0.150,-0.971,
20,5.229,0,1.155,0.187,-0.089,1.136,0.257,-0.152,-0.972,
21,5.297,0,1.156,0.189,-0.087,1.137,0.251,-0.155,-0.970,
22,5.362,0,1.153,0.189,-0.085,1.135,0.265,-0.161,-0.967,
23,5.431,0,1.148,0.190,-0.082,1.130,0.250,-0.156,-0.968,
24,5.495,0,1.149,0.190,-0.081,1.131,0.252,-0.158,-0.968,
25,5.558,0,1.149,0.193,-0.078,1.130,0.260,-0.167,-0.965,
26,5.624,0,1.150,0.192,-0.075,1.132,0.243,-0.162,-0.972,
27,5.696,0,1.150,0.189,-0.075,1.132,0.245,-0.160,-0.978,
28,5.769,0,1.150,0.187,-0.076,1.132,0.251,-0.160,-0.979,
29,5.838,0,1.151,0.189,-0.077,1.133,0.251,-0.162,-0.977,
30,5.907,0,1.153,0.189,-0.078,1.135,0.254,-0.162,-0.977,
31,5.980,0,1.151,0.189,-0.079,1.133,0.256,-0.164,-0.978,
32,6.046,0,1.157,0.186,-0.081,1.139,0.265,-0.170,-0.989,
33,6.122,0,1.199,0.171,-0.086,1.184,0.191,-0.180,-1.077,
34,6.200,0,1.229,0.141,-0.087,1.218,0.287,-0.199,-1.198,
35,6.358,0,1.240,0.070,-0.116,1.233,0.349,-0.115,-1.514,
36,6.440,0,1.214,0.049,-0.115,1.208,0.381,-0.049,-1.560,
37,6.658,0,1.640,0.022,-0.174,1.630,0.336,-0.043,0.026,
38,6.730,0,1.695,-0.001,-0.166,1.687,0.382,-0.039,0.015,
39,6.802,0,1.671,-0.022,-0.157,1.664,0.366,-0.031,-0.009,
40,6.873,0,1.703,-0.025,-0.178,1.693,0.276,-0.033,0.019,
41,6.949,0,1.634,-0.008,-0.188,1.623,0.352,-0.061,0.062,
42,7.019,0,1.654,-0.006,-0.190,1.643,0.290,-0.042,0.059,
43,7.096,0,1.679,-0.001,-0.190,1.668,0.276,-0.020,0.054,
44,7.179,0,1.683,0.001,-0.196,1.671,0.310,-0.048,0.060,
45,7.249,0,1.698,0.007,-0.202,1.686,0.287,-0.041,0.062,
46,7.316,0,1.699,0.006,-0.210,1.686,0.286,-0.053,0.069,
47,7.384,0,1.686,0.006,-0.215,1.673,0.301,-0.076,0.079,
48,7.448,0,1.685,0.007,-0.216,1.671,0.304,-0.075,0.077,
49,7.516,0,1.685,0.007,-0.215,1.671,0.302,-0.077,0.075,
50,7.590,0,1.684,0.007,-0.215,1.671,0.301,-0.079,0.073,
51,7.660,0,1.683,0.007,-0.214,1.670,0.304,-0.077,0.071,
52,7.730,0,1.684,0.007,-0.214,1.670,0.304,-0.078,0.071,
53,7.799,0,1.684,0.007,-0.213,1.670,0.304,-0.081,0.072,
54,7.871,0,1.683,0.007,-0.212,1.669,0.306,-0.078,0.071,
55,7.938,0,1.683,0.007,-0.212,1.669,0.303,-0.081,0.072,
56,8.008,0,1.684,0.007,-0.212,1.670,0.302,-0.081,0.071,
57,8.079,0,1.682,0.008,-0.211,1.669,0.303,-0.079,0.071,
58,8.143,0,1.683,0.008,-0.211,1.670,0.303,-0.081,0.071,
59,8.217,0,1.683,0.008,-0.211,1.670,0.302,-0.080,0.070,
60,8.287,0,1.683,0.008,-0.211,1.670,0.303,-0.082,0.070,
61,8.354,0,1.683,0.009,-0.211,1.670,0.304,-0.080,0.070,
62,8.424,0,1.682,0.009,-0.210,1.669,0.305,-0.079,0.070,
63,8.497,0,1.683,0.009,-0.210,1.670,0.305,-0.079,0.070,
64,8.567,0,1.683,0.009,-0.210,1.670,0.301,-0.077,0.070,
65,8.633,0,1.682,0.009,-0.209,1.668,0.301,-0.080,0.070,
66,8.704,0,1.682,0.009,-0.209,1.669,0.301,-0.081,0.071,
67,8.769,0,1.681,0.009,-0.209,1.668,0.303,-0.079,0.071,
68,8.843,0,1.680,0.009,-0.208,1.667,0.304,-0.075,0.070,
69,8.913,0,1.680,0.009,-0.208,1.667,0.302,-0.076,0.070,
70,8.990,0,1.680,0.009,-0.207,1.667,0.301,-0.077,0.070,
71,9.055,0,1.680,0.009,-0.207,1.667,0.303,-0.077,0.071,
72,9.123,0,1.678,0.009,-0.207,1.666,0.304,-0.079,0.071,
73,9.192,0,1.677,0.009,-0.206,1.665,0.305,-0.076,0.070,
74,9.260,0,1.677,0.009,-0.206,1.665,0.306,-0.076,0.070,
75,9.325,0,1.677,0.009,-0.206,1.665,0.306,-0.076,0.070,
76,9.395,0,1.677,0.009,-0.206,1.665,0.306,-0.075,0.070,
77,9.462,0,1.678,0.009,-0.206,1.665,0.304,-0.075,0.070,
78,9.536,0,1.677,0.009,-0.206,1.664,0.305,-0.076,0.070,
79,9.605,0,1.677,0.009,-0.206,1.664,0.306,-0.075,0.070,
80,9.671,0,1.676,0.009,-0.206,1.664,0.304,-0.075,0.070,
81,9.739,0,1.677,0.009,-0.206,1.664,0.304,-0.076,0.070,
82,9.805,0,1.677,0.009,-0.206,1.664,0.305,-0.075,0.070,
83,9.873,0,1.676,0.009,-0.206,1.663,0.305,-0.075,0.070,
84,9.940,0,1.676,0.009,-0.206,1.663,0.305,-0.073,0.070,
85,10.008,0,1.676,0.009,-0.206,1.663,0.304,-0.076,0.070,
86,10.088,0,1.676,0.008,-0.205,1.663,0.304,-0.077,0.070,
87,10.153,0,1.677,0.007,-0.205,1.664,0.311,-0.082,0.073,
88,10.221,0,1.675,0.001,-0.201,1.663,0.317,-0.073,0.071,
89,10.290,0,1.684,-0.007,-0.196,1.673,0.321,-0.066,0.069,
90,10.359,0,1.703,-0.020,-0.185,1.693,0.316,-0.055,0.063,
91,10.422,0,1.697,-0.035,-0.170,1.688,0.349,-0.042,0.057,
92,10.487,0,1.682,-0.049,-0.157,1.674,0.357,-0.028,0.051,
93,10.561,0,1.683,-0.062,-0.147,1.675,0.371,-0.017,0.046,
94,10.635,0,1.680,-0.076,-0.135,1.673,0.375,-0.007,0.040,
95,10.708,0,1.675,-0.089,-0.124,1.668,0.375,0.003,0.033,
96,10.777,0,1.672,-0.100,-0.112,1.665,0.373,0.014,0.028,
97,10.843,0,1.673,-0.110,-0.100,1.666,0.386,0.026,0.023,
98,10.912,0,1.665,-0.121,-0.089,1.658,0.396,0.034,0.020,
99,10.981,0,1.667,-0.132,-0.077,1.660,0.410,0.051,0.011,
100,11.047,0,1.669,-0.144,-0.066,1.662,0.410,0.064,0.003,
101,11.119,0,1.674,-0.156,-0.054,1.666,0.412,0.079,-0.003,
102,11.188,0,1.671,-0.170,-0.041,1.661,0.451,0.091,-0.008,
103,11.263,0,1.673,-0.183,-0.029,1.663,0.432,0.113,-0.016,
104,11.333,0,1.673,-0.194,-0.018,1.662,0.447,0.125,-0.019,
105,11.396,0,1.673,-0.205,-0.009,1.661,0.455,0.135,-0.024,
106,11.462,0,1.680,-0.218,0.002,1.666,0.462,0.147,-0.029,
107,11.530,0,1.677,-0.232,0.013,1.661,0.487,0.154,-0.039,
108,11.593,0,1.674,-0.246,0.024,1.655,0.483,0.172,-0.046,
109,11.658,0,1.674,-0.258,0.035,1.654,0.485,0.192,-0.055,
110,11.724,0,1.675,-0.272,0.049,1.652,0.501,0.205,-0.064,
111,11.803,0,1.684,-0.287,0.066,1.658,0.491,0.241,-0.076,
112,11.873,0,1.688,-0.300,0.082,1.659,0.509,0.267,-0.089,
113,11.944,0,1.685,-0.312,0.096,1.653,0.530,0.285,-0.099,
114,12.013,0,1.700,-0.328,0.112,1.665,0.526,0.308,-0.105,
115,12.086,0,1.704,-0.343,0.127,1.665,0.551,0.328,-0.118,
116,12.155,0,1.703,-0.359,0.142,1.658,0.566,0.348,-0.132,
117,12.224,0,1.694,-0.374,0.154,1.645,0.584,0.367,-0.144,
118,12.293,0,1.683,-0.384,0.166,1.630,0.590,0.395,-0.155,
119,12.370,0,1.687,-0.396,0.178,1.631,0.596,0.413,-0.161,
120,12.444,0,1.690,-0.409,0.191,1.629,0.612,0.431,-0.174,
121,12.514,0,1.701,-0.423,0.206,1.635,0.602,0.464,-0.181,
122,12.580,0,1.700,-0.432,0.220,1.629,0.624,0.487,-0.196,
123,12.648,0,1.697,-0.440,0.229,1.622,0.638,0.503,-0.208,
124,12.719,0,1.721,-0.450,0.236,1.645,0.642,0.507,-0.212,
125,12.792,0,1.743,-0.461,0.244,1.663,0.630,0.527,-0.213,
126,12.870,0,1.750,-0.473,0.260,1.665,0.644,0.550,-0.228,
127,12.945,0,1.743,-0.476,0.265,1.656,0.658,0.556,-0.237,
128,13.025,0,1.760,-0.488,0.278,1.668,0.656,0.583,-0.244,
129,13.103,0,1.766,-0.500,0.289,1.668,-0.147,-0.132,-0.069,
130,13.189,0,1.756,-0.498,0.287,1.659,0.674,0.606,-0.267,
131,13.264,0,1.783,-0.512,0.274,1.686,-0.104,-0.170,-0.077,
132,13.419,0,1.781,-0.515,0.243,1.687,0.650,0.556,-0.223,
133,13.569,0,1.764,-0.515,0.205,1.674,0.666,0.484,-0.193,
134,13.644,0,1.748,-0.511,0.192,1.660,0.687,0.440,-0.179,
135,13.721,0,1.746,-0.508,0.175,1.661,0.702,0.390,-0.148,
136,13.809,0,1.739,-0.504,0.166,1.656,0.700,0.376,-0.134,
137,13.881,0,1.734,-0.500,0.152,1.653,0.703,0.342,-0.110,
138,13.957,0,1.734,-0.499,0.145,1.655,0.699,0.327,-0.099,
139,14.039,0,1.736,-0.499,0.136,1.657,0.691,0.307,-0.084,
140,14.116,0,1.724,-0.494,0.120,1.648,0.695,0.275,-0.062,
141,14.193,0,1.728,-0.495,0.112,1.652,0.687,0.268,-0.053,
142,14.270,0,1.738,-0.497,0.094,1.663,0.680,0.228,-0.032,
143,14.349,0,1.744,-0.498,0.083,1.670,0.677,0.223,-0.025,
144,14.431,0,1.730,-0.489,0.063,1.658,-0.154,-0.080,0.028,
145,14.511,0,1.720,-0.481,0.045,1.651,-0.126,-0.089,0.033,
146,14.587,0,1.711,-0.477,0.038,1.643,-0.153,-0.086,0.033,
147,14.668,0,1.718,-0.477,0.030,1.651,-0.144,-0.094,0.032,
148,14.746,0,1.711,-0.475,0.013,1.644,-0.144,-0.097,0.029,
149,14.821,0,1.702,-0.473,0.006,1.634,-0.159,-0.091,0.030,
150,14.892,0,1.681,-0.468,0.002,1.614,-0.189,-0.086,0.027,
151,14.975,0,1.682,-0.465,0.002,1.616,-0.200,-0.082,0.026,
152,15.052,0,1.679,-0.448,0.003,1.619,-0.246,-0.072,0.023,
153,15.123,0,1.676,-0.436,0.003,1.618,-0.255,-0.068,0.022,
154,15.212,0,1.675,-0.426,0.002,1.620,-0.249,-0.072,0.017,
155,15.288,0,1.664,-0.402,-0.002,1.615,-0.270,-0.060,0.022,
156,15.359,0,1.663,-0.390,-0.004,1.616,-0.277,-0.066,0.021,
157,15.503,0,1.654,-0.347,-0.010,1.617,-0.282,-0.065,0.026,
158,15.580,0,1.649,-0.334,-0.011,1.615,-0.280,-0.066,0.026,
159,15.653,0,1.638,-0.309,-0.013,1.608,-0.290,-0.060,0.027,
160,15.730,0,1.634,-0.296,-0.013,1.607,-0.297,-0.056,0.027,
161,15.807,0,1.624,-0.271,-0.015,1.601,-0.301,-0.053,0.028,
162,15.957,0,1.618,-0.231,-0.016,1.602,0.599,0.034,0.035,
163,16.190,0,1.595,-0.181,-0.017,1.584,0.518,0.028,0.033,
164,16.276,0,1.594,-0.173,-0.017,1.585,0.506,0.032,0.030,
165,16.359,0,1.594,-0.156,-0.017,1.586,0.511,0.025,0.032,
166,16.440,0,1.590,-0.140,-0.018,1.584,0.472,0.040,0.028,
167,16.530,0,1.592,-0.125,-0.020,1.587,0.479,0.028,0.033,
168,16.635,0,1.587,-0.106,-0.019,1.584,0.482,0.028,0.034,
169,16.724,0,1.587,-0.088,-0.019,1.585,0.441,0.029,0.035,
170,16.819,0,1.587,-0.071,-0.020,1.585,0.457,0.019,0.036,
171,16.917,0,1.587,-0.047,-0.022,1.586,0.446,0.010,0.036,
172,17.007,0,1.578,-0.011,-0.024,1.578,0.452,0.001,0.035,
173,17.087,0,1.581,0.017,-0.031,1.581,0.421,-0.006,0.038,
174,17.166,0,1.580,0.042,-0.038,1.579,0.364,-0.009,0.038,
175,17.247,0,1.579,0.053,-0.040,1.578,0.327,-0.005,0.036,
176,17.322,0,1.581,0.070,-0.041,1.579,0.335,-0.009,0.035,
177,17.396,0,1.580,0.076,-0.042,1.577,0.313,-0.013,0.035,
178,17.480,0,1.577,0.088,-0.042,1.574,0.299,-0.012,0.034,
179,17.561,0,1.580,0.100,-0.042,1.576,0.320,-0.015,0.034,
180,17.644,0,1.575,0.119,-0.043,1.570,0.329,-0.017,0.032,
181,17.726,0,1.575,0.124,-0.043,1.570,0.332,-0.012,0.038,
182,18.133,0,1.572,-0.044,-0.038,1.571,0.452,0.005,0.043,
183,18.214,0,1.572,-0.068,-0.036,1.570,0.459,0.003,0.046,
184,18.298,0,1.571,-0.089,-0.035,1.568,0.462,0.010,0.043,
185,18.382,0,1.572,-0.105,-0.032,1.568,0.451,0.013,0.042,
186,18.465,0,1.575,-0.120,-0.030,1.570,0.465,0.019,0.042,
187,18.556,0,1.576,-0.134,-0.027,1.570,0.463,0.021,0.043,
188,18.634,0,1.578,-0.150,-0.025,1.571,0.504,0.019,0.045,
189,18.710,0,1.577,-0.159,-0.025,1.569,0.490,0.026,0.041,
190,18.879,0,1.585,-0.206,-0.025,1.572,0.577,0.026,0.041,
191,18.979,0,1.587,-0.217,-0.025,1.572,0.560,0.020,0.045,
192,19.463,0,1.560,-0.038,-0.027,1.559,0.454,0.005,0.026,
193,19.562,0,1.555,-0.014,-0.029,1.554,0.426,0.008,0.023,
194,19.654,0,1.547,0.009,-0.031,1.547,0.416,0.008,0.019,
195,19.743,0,1.549,0.029,-0.031,1.548,0.383,-0.000,0.020,
196,19.827,0,1.547,0.049,-0.031,1.546,0.360,0.010,0.014,
197,19.907,0,1.547,0.065,-0.031,1.546,0.337,-0.002,0.016,
198,19.990,0,1.550,0.081,-0.032,1.547,0.333,-0.005,0.016,
199,20.071,0,1.552,0.090,-0.032,1.549,0.332,-0.001,0.016,
200,20.149,0,1.554,0.107,-0.033,1.550,0.297,-0.002,0.012,
201,20.226,0,1.556,0.125,-0.033,1.550,0.338,-0.012,0.010,
202,20.300,0,1.557,0.136,-0.033,1.551,0.314,-0.006,0.005,
203,20.372,0,1.562,0.156,-0.034,1.553,0.299,-0.023,0.006,
204,20.445,0,1.568,0.168,-0.037,1.559,0.311,-0.033,0.010,
205,20.607,0,1.560,0.189,-0.042,1.548,0.231,-0.011,0.013,
206,20.677,0,1.629,0.183,-0.061,1.617,0.098,0.018,0.014,
207,26.706,0,1.736,-0.105,-0.207,1.720,0.224,-0.039,-0.005,
208,26.791,0,1.667,-0.099,-0.188,1.654,0.370,-0.082,0.015,
209,26.896,0,1.664,-0.101,-0.190,1.650,0.385,-0.078,0.017,
210,26.994,0,1.664,-0.103,-0.191,1.650,0.384,-0.078,0.019,
211,27.101,0,1.669,-0.101,-0.197,1.654,0.376,-0.096,0.025,
212,27.194,0,1.671,-0.100,-0.201,1.656,0.373,-0.097,0.030,
213,27.267,0,1.669,-0.097,-0.203,1.654,0.374,-0.101,0.038,
214,27.367,0,1.667,-0.095,-0.202,1.651,0.376,-0.090,0.037,
215,27.476,0,1.668,-0.095,-0.200,1.653,0.373,-0.088,0.036,
216,27.566,0,1.662,-0.096,-0.198,1.647,0.375,-0.092,0.036,
217,27.659,0,1.661,-0.096,-0.197,1.646,0.376,-0.098,0.038,
218,27.750,0,1.662,-0.097,-0.198,1.648,0.375,-0.088,0.036,
219,27.835,0,1.695,-0.106,-0.214,1.679,0.352,-0.099,0.031,
220,27.913,0,1.675,-0.112,-0.202,1.659,0.402,-0.090,0.026,
221,27.989,0,1.673,-0.118,-0.200,1.657,0.389,-0.084,0.019,
222,28.065,0,1.666,-0.125,-0.193,1.650,0.425,-0.090,0.019,
223,28.137,0,1.667,-0.128,-0.192,1.651,0.400,-0.086,0.014,
224,28.207,0,1.666,-0.127,-0.193,1.650,0.393,-0.077,0.013,
225,28.270,0,1.666,-0.128,-0.194,1.650,0.398,-0.079,0.014,
226,28.337,0,1.676,-0.127,-0.196,1.659,0.383,-0.085,0.014,
227,28.405,0,1.682,-0.125,-0.189,1.666,0.344,-0.069,0.009,
228,28.475,0,1.658,-0.124,-0.186,1.643,0.396,-0.086,0.017,
229,28.548,0,1.655,-0.122,-0.188,1.640,0.398,-0.077,0.016,
230,28.625,0,1.655,-0.122,-0.188,1.640,0.399,-0.071,0.016,
231,28.712,0,1.656,-0.125,-0.188,1.640,0.412,-0.079,0.017,
232,28.797,0,1.654,-0.128,-0.186,1.639,0.404,-0.082,0.016,
233,28.871,0,1.656,-0.130,-0.184,1.641,0.396,-0.082,0.014,
234,28.941,0,1.652,-0.129,-0.182,1.637,0.407,-0.079,0.014,
235,29.011,0,1.650,-0.128,-0.181,1.636,0.406,-0.082,0.014,
236,29.078,0,1.650,-0.127,-0.181,1.635,0.401,-0.069,0.015,
237,29.152,0,1.651,-0.128,-0.181,1.636,0.404,-0.085,0.016,
238,29.225,0,1.649,-0.128,-0.180,1.634,0.404,-0.080,0.016,
239,29.293,0,1.651,-0.128,-0.181,1.636,0.401,-0.073,0.014,
240,29.368,0,1.650,-0.125,-0.182,1.635,0.399,-0.077,0.015,
241,29.440,0,1.650,-0.125,-0.182,1.635,0.398,-0.068,0.015,
242,29.518,0,1.648,-0.125,-0.181,1.633,0.405,-0.081,0.018,
243,29.589,0,1.649,-0.124,-0.182,1.634,0.404,-0.075,0.018,
244,29.657,0,1.665,-0.131,-0.197,1.648,0.394,-0.087,0.017,
245,29.726,0,1.663,-0.129,-0.196,1.646,0.403,-0.091,0.020,
246,29.803,0,1.656,-0.124,-0.195,1.640,0.400,-0.091,0.022,
247,29.870,0,1.659,-0.126,-0.193,1.643,0.390,-0.087,0.016,
248,29.944,0,1.654,-0.125,-0.193,1.638,0.399,-0.081,0.019,
249,30.018,0,1.656,-0.126,-0.193,1.640,0.401,-0.087,0.019,
250,30.103,0,1.656,-0.127,-0.193,1.640,0.397,-0.072,0.017,
251,30.179,0,1.656,-0.127,-0.194,1.640,0.396,-0.077,0.019,
252,30.246,0,1.656,-0.127,-0.196,1.640,0.401,-0.081,0.021,
253,30.309,0,1.655,-0.126,-0.197,1.639,0.397,-0.092,0.023,
254,30.376,0,1.656,-0.126,-0.197,1.640,0.399,-0.101,0.023,
255,30.451,0,1.677,-0.125,-0.197,1.660,0.361,-0.082,0.019,
256,30.540,0,1.652,-0.124,-0.192,1.637,0.408,-0.089,0.026,
257,30.623,0,1.656,-0.126,-0.191,1.640,0.393,-0.091,0.023,
258,30.691,0,1.652,-0.125,-0.189,1.636,0.400,-0.079,0.022,
259,30.761,0,1.662,-0.129,-0.199,1.645,0.394,-0.079,0.020,
260,30.825,0,1.660,-0.128,-0.197,1.644,0.396,-0.098,0.022,
261,30.895,0,1.659,-0.131,-0.195,1.642,0.400,-0.084,0.018,
262,30.969,0,1.658,-0.131,-0.196,1.641,0.401,-0.094,0.019,
263,31.045,0,1.656,-0.130,-0.196,1.639,0.403,-0.084,0.020,
264,31.110,0,1.658,-0.131,-0.195,1.641,0.400,-0.086,0.018,
265,31.182,0,1.658,-0.131,-0.195,1.641,0.401,-0.085,0.019,
266,31.253,0,1.656,-0.131,-0.195,1.639,0.403,-0.084,0.019,
267,31.323,0,1.658,-0.130,-0.195,1.641,0.398,-0.088,0.019,
268,31.386,0,1.651,-0.127,-0.184,1.636,0.401,-0.076,0.019,
269,31.471,0,1.653,-0.126,-0.185,1.638,0.389,-0.088,0.019,
270,31.551,0,1.650,-0.127,-0.184,1.635,0.396,-0.072,0.017,
271,31.646,0,1.649,-0.126,-0.183,1.633,0.398,-0.080,0.019,
272,31.735,0,1.648,-0.125,-0.184,1.632,0.398,-0.096,0.023,
273,31.820,0,1.651,-0.125,-0.185,1.635,0.397,-0.088,0.022,
274,31.908,0,1.648,-0.124,-0.185,1.633,0.400,-0.079,0.022,
275,31.992,0,1.654,-0.126,-0.186,1.639,0.390,-0.087,0.022,
276,32.059,0,1.658,-0.129,-0.199,1.641,0.399,-0.081,0.022,
277,32.124,0,1.682,-0.129,-0.206,1.665,0.347,-0.081,0.023,
278,32.194,0,1.657,-0.133,-0.208,1.639,0.416,-0.107,0.037,
279,32.268,0,1.654,-0.138,-0.205,1.636,0.428,-0.099,0.032,
280,32.355,0,1.674,-0.150,-0.199,1.655,0.406,-0.082,0.020,
281,32.675,0,1.621,-0.357,0.006,1.581,0.663,0.151,-0.106,
282,32.750,0,1.572,-0.361,0.016,1.530,-0.197,-0.093,-0.085,
283,32.821,0,1.544,-0.357,0.018,1.502,-0.206,-0.083,-0.084,
284,33.845,0,1.678,0.419,-0.249,1.605,0.226,-0.072,0.167,
285,33.915,0,1.633,0.401,-0.249,1.563,0.251,-0.050,0.152,
286,33.986,0,1.629,0.398,-0.249,1.560,0.231,-0.049,0.150,
287,34.063,0,1.630,0.396,-0.253,1.561,0.232,-0.050,0.159,
288,34.139,0,1.626,0.389,-0.249,1.559,0.236,-0.052,0.157,
289,34.216,0,1.631,0.389,-0.251,1.564,0.225,-0.055,0.159,
290,34.286,0,1.629,0.388,-0.252,1.562,0.229,-0.057,0.162,
291,34.355,0,1.630,0.387,-0.253,1.563,0.231,-0.061,0.162,
292,34.421,0,1.631,0.388,-0.255,1.563,0.229,-0.059,0.164,
293,34.498,0,1.631,0.388,-0.254,1.564,0.230,-0.062,0.164,
294,34.572,0,1.629,0.386,-0.252,1.563,0.229,-0.061,0.162,
295,34.652,0,1.630,0.387,-0.252,1.563,0.230,-0.060,0.162,
296,34.721,0,1.629,0.387,-0.250,1.563,0.228,-0.058,0.160,
297,34.790,0,1.628,0.385,-0.248,1.562,0.232,-0.059,0.159,
298,34.865,0,1.630,0.385,-0.248,1.564,0.233,-0.063,0.159,
299,34.935,0,1.632,0.386,-0.248,1.566,0.230,-0.060,0.158,
300,35.019,0,1.635,0.384,-0.247,1.570,0.238,-0.071,0.158,
301,35.091,0,1.639,0.384,-0.246,1.574,0.242,-0.081,0.156,
302,35.158,0,1.646,0.384,-0.245,1.581,0.239,-0.092,0.151,
303,35.234,0,1.665,0.380,-0.239,1.603,0.248,-0.141,0.138,
304,35.317,0,1.666,0.372,-0.233,1.607,0.240,-0.153,0.112,
305,35.401,0,1.662,0.368,-0.228,1.604,0.233,-0.161,0.099,
306,35.482,0,1.667,0.368,-0.229,1.610,0.236,-0.177,0.100,
307,35.552,0,1.670,0.367,-0.227,1.613,0.233,-0.182,0.099,
308,35.620,0,1.668,0.366,-0.226,1.611,0.235,-0.182,0.103,
309,35.692,0,1.668,0.367,-0.227,1.611,0.233,-0.184,0.105,
310,35.766,0,1.669,0.367,-0.228,1.612,0.237,-0.179,0.108,
311,35.838,0,1.667,0.367,-0.229,1.610,0.237,-0.181,0.109,
312,35.907,0,1.669,0.365,-0.229,1.613,0.241,-0.180,0.109,
313,35.972,0,1.669,0.358,-0.228,1.614,0.248,-0.179,0.108,
314,36.037,0,1.665,0.352,-0.226,1.612,0.243,-0.174,0.109,
315,36.100,0,1.667,0.349,-0.226,1.615,0.247,-0.172,0.111,
316,36.166,0,1.699,0.350,-0.226,1.647,0.248,-0.179,0.116,
317,36.308,0,1.678,0.307,-0.185,1.639,0.284,-0.161,0.101,
318,36.372,0,1.665,0.297,-0.179,1.629,0.268,-0.158,0.100,
319,36.441,0,1.651,0.276,-0.173,1.618,0.291,-0.150,0.103,
320,36.516,0,1.654,0.263,-0.164,1.624,0.266,-0.147,0.093,
321,36.581,0,1.645,0.254,-0.160,1.617,0.288,-0.141,0.089,
322,36.657,0,1.642,0.247,-0.159,1.616,0.269,-0.145,0.083,
323,36.729,0,1.640,0.241,-0.157,1.614,0.253,-0.142,0.079,
324,36.800,0,1.641,0.238,-0.158,1.616,0.270,-0.139,0.080,
325,36.871,0,1.644,0.229,-0.158,1.620,0.276,-0.140,0.076,
326,36.936,0,1.646,0.226,-0.159,1.623,0.259,-0.145,0.072,
327,37.003,0,1.648,0.227,-0.160,1.624,0.256,-0.142,0.071,
328,37.074,0,1.653,0.227,-0.159,1.629,0.256,-0.147,0.072,
329,37.152,0,1.652,0.225,-0.158,1.629,0.261,-0.143,0.071,
330,37.223,0,1.652,0.224,-0.157,1.629,0.258,-0.144,0.069,
331,37.298,0,1.654,0.226,-0.157,1.631,0.266,-0.144,0.070,
332,37.365,0,1.654,0.226,-0.157,1.631,0.264,-0.143,0.071,
333,37.442,0,1.671,0.228,-0.157,1.648,0.242,-0.147,0.069,
334,37.527,0,1.648,0.226,-0.145,1.625,0.262,-0.140,0.070,
335,37.626,0,1.648,0.230,-0.144,1.626,0.262,-0.133,0.070,
336,37.729,0,1.645,0.233,-0.140,1.623,0.264,-0.130,0.071,
337,37.810,0,1.647,0.237,-0.142,1.624,0.259,-0.142,0.076,
338,37.900,0,1.653,0.237,-0.145,1.630,0.257,-0.140,0.077,
339,37.989,0,1.679,0.236,-0.151,1.655,0.290,-0.132,0.077,
340,38.081,0,1.672,0.220,-0.155,1.651,0.263,-0.148,0.067,
341,38.158,0,1.664,0.218,-0.150,1.643,0.261,-0.148,0.067,
342,38.233,0,1.660,0.217,-0.147,1.639,0.264,-0.141,0.064,
343,38.302,0,1.661,0.216,-0.146,1.640,0.269,-0.145,0.064,
